Summary
[Data Information]
Data is:,Measurement Data
Dataset Name:,RawData
Sample Name:,MD_P_amostra_P2_10-20_22_09_2025
Sample ID
Option
Analyst
Date/Time:,09/22/2025 11:49:14 AM
Comments
Parameter File Name:,Esfera de Integração.vspm
Report File Name
[Software Information]
Software Name:,LabSolutions UV-Vis
Version:,1.11
[Instrument Information]
Instrument Name:,UV-2600i
Instrument Type:,UV-2600 Series
Model (S/N):,UV-2600i (A12595900700)

Parameter
[Measurement]
Start:,1300 nm
End:,200 nm
Data Interval:,1.0
Scan Speed:,High speed
Spectrum Type:,Absorbance
[Accessories]
Accessories:,None
[Advanced]
Slit Width:,5.0
Detector Unit:,External (2 Detector)
Light Source Switch Wavelength:,323
Detector Switch Wavelength:,830
S/R Switch:,Standard
Stair Correction:,ON
[Repeat]
Repeat Measurement:,OFF
[Post-processing]
Spectrum Transformation:,OFF
Data Processing Table:,OFF
Print:,OFF

Wavelength (nm),Absorbance
200.0,0.388
201.0,0.296
202.0,0.292
203.0,0.088
204.0,0.127
205.0,0.130
206.0,0.272
207.0,0.208
208.0,0.185
209.0,0.063
210.0,0.171
211.0,0.176
212.0,0.356
213.0,0.312
214.0,0.284
215.0,0.205
216.0,0.242
217.0,0.229
218.0,0.230
219.0,0.251
220.0,0.324
221.0,0.236
222.0,0.113
223.0,0.062
224.0,0.148
225.0,0.192
226.0,0.282
227.0,0.267
228.0,0.330
229.0,0.233
230.0,0.195
231.0,0.161
232.0,0.169
233.0,0.201
234.0,0.238
235.0,0.253
236.0,0.342
237.0,0.430
238.0,0.509
239.0,0.467
240.0,0.337
241.0,0.199
242.0,0.186
243.0,0.251
244.0,0.234
245.0,0.245
246.0,0.280
247.0,0.424
248.0,0.333
249.0,0.300
250.0,0.202
251.0,0.259
252.0,0.222
253.0,0.257
254.0,0.225
255.0,0.183
256.0,0.218
257.0,0.179
258.0,0.125
259.0,0.040
260.0,0.175
261.0,0.230
262.0,0.279
263.0,0.163
264.0,0.259
265.0,0.346
266.0,0.521
267.0,0.373
268.0,0.289
269.0,0.212
270.0,0.274
271.0,0.347
272.0,0.307
273.0,0.358
274.0,0.276
275.0,0.262
276.0,0.229
277.0,0.278
278.0,0.315
279.0,0.334
280.0,0.347
281.0,0.319
282.0,0.342
283.0,0.292
284.0,0.263
285.0,0.216
286.0,0.188
287.0,0.269
288.0,0.357
289.0,0.432
290.0,0.322
291.0,0.314
292.0,0.262
293.0,0.300
294.0,0.301
295.0,0.247
296.0,0.216
297.0,0.133
298.0,0.140
299.0,0.188
300.0,0.190
301.0,0.213
302.0,0.247
303.0,0.275
304.0,0.323
305.0,0.340
306.0,0.365
307.0,0.378
308.0,0.385
309.0,0.396
310.0,0.411
311.0,0.425
312.0,0.428
313.0,0.426
314.0,0.429
315.0,0.432
316.0,0.430
317.0,0.428
318.0,0.423
319.0,0.415
320.0,0.408
321.0,0.399
322.0,0.392
323.0,0.381
324.0,0.373
325.0,0.363
326.0,0.355
327.0,0.344
328.0,0.333
329.0,0.322
330.0,0.313
331.0,0.302
332.0,0.293
333.0,0.283
334.0,0.274
335.0,0.265
336.0,0.256
337.0,0.248
338.0,0.240
339.0,0.233
340.0,0.226
341.0,0.220
342.0,0.214
343.0,0.208
344.0,0.201
345.0,0.196
346.0,0.191
347.0,0.186
348.0,0.181
349.0,0.177
350.0,0.174
351.0,0.170
352.0,0.166
353.0,0.162
354.0,0.159
355.0,0.156
356.0,0.153
357.0,0.150
358.0,0.147
359.0,0.145
360.0,0.143
361.0,0.141
362.0,0.139
363.0,0.137
364.0,0.134
365.0,0.133
366.0,0.131
367.0,0.129
368.0,0.129
369.0,0.127
370.0,0.126
371.0,0.124
372.0,0.123
373.0,0.122
374.0,0.121
375.0,0.119
376.0,0.118
377.0,0.117
378.0,0.116
379.0,0.116
380.0,0.114
381.0,0.113
382.0,0.112
383.0,0.111
384.0,0.110
385.0,0.110
386.0,0.109
387.0,0.108
388.0,0.107
389.0,0.106
390.0,0.106
391.0,0.105
392.0,0.104
393.0,0.103
394.0,0.103
395.0,0.102
396.0,0.101
397.0,0.101
398.0,0.100
399.0,0.100
400.0,0.100
401.0,0.099
402.0,0.099
403.0,0.099
404.0,0.099
405.0,0.099
406.0,0.098
407.0,0.098
408.0,0.098
409.0,0.099
410.0,0.099
411.0,0.099
412.0,0.099
413.0,0.099
414.0,0.099
415.0,0.099
416.0,0.100
417.0,0.100
418.0,0.100
419.0,0.101
420.0,0.101
421.0,0.101
422.0,0.102
423.0,0.102
424.0,0.103
425.0,0.103
426.0,0.104
427.0,0.104
428.0,0.105
429.0,0.106
430.0,0.107
431.0,0.107
432.0,0.108
433.0,0.109
434.0,0.110
435.0,0.111
436.0,0.112
437.0,0.113
438.0,0.113
439.0,0.114
440.0,0.116
441.0,0.117
442.0,0.118
443.0,0.119
444.0,0.120
445.0,0.121
446.0,0.122
447.0,0.123
448.0,0.125
449.0,0.126
450.0,0.127
451.0,0.128
452.0,0.129
453.0,0.130
454.0,0.132
455.0,0.134
456.0,0.135
457.0,0.136
458.0,0.138
459.0,0.139
460.0,0.141
461.0,0.142
462.0,0.144
463.0,0.146
464.0,0.147
465.0,0.149
466.0,0.150
467.0,0.151
468.0,0.152
469.0,0.154
470.0,0.155
471.0,0.157
472.0,0.158
473.0,0.160
474.0,0.162
475.0,0.163
476.0,0.165
477.0,0.166
478.0,0.168
479.0,0.169
480.0,0.171
481.0,0.172
482.0,0.174
483.0,0.175
484.0,0.177
485.0,0.178
486.0,0.179
487.0,0.181
488.0,0.182
489.0,0.184
490.0,0.185
491.0,0.186
492.0,0.187
493.0,0.189
494.0,0.190
495.0,0.191
496.0,0.192
497.0,0.193
498.0,0.194
499.0,0.196
500.0,0.197
501.0,0.198
502.0,0.200
503.0,0.200
504.0,0.202
505.0,0.203
506.0,0.204
507.0,0.205
508.0,0.207
509.0,0.208
510.0,0.209
511.0,0.210
512.0,0.211
513.0,0.212
514.0,0.213
515.0,0.215
516.0,0.216
517.0,0.218
518.0,0.219
519.0,0.221
520.0,0.222
521.0,0.224
522.0,0.226
523.0,0.228
524.0,0.229
525.0,0.231
526.0,0.233
527.0,0.235
528.0,0.236
529.0,0.238
530.0,0.240
531.0,0.242
532.0,0.244
533.0,0.245
534.0,0.247
535.0,0.249
536.0,0.251
537.0,0.253
538.0,0.255
539.0,0.257
540.0,0.259
541.0,0.260
542.0,0.262
543.0,0.264
544.0,0.266
545.0,0.268
546.0,0.270
547.0,0.272
548.0,0.274
549.0,0.276
550.0,0.277
551.0,0.279
552.0,0.281
553.0,0.282
554.0,0.284
555.0,0.285
556.0,0.287
557.0,0.288
558.0,0.290
559.0,0.291
560.0,0.293
561.0,0.294
562.0,0.296
563.0,0.297
564.0,0.299
565.0,0.300
566.0,0.302
567.0,0.303
568.0,0.304
569.0,0.306
570.0,0.307
571.0,0.309
572.0,0.310
573.0,0.312
574.0,0.313
575.0,0.314
576.0,0.316
577.0,0.317
578.0,0.318
579.0,0.319
580.0,0.321
581.0,0.322
582.0,0.323
583.0,0.325
584.0,0.326
585.0,0.327
586.0,0.328
587.0,0.330
588.0,0.331
589.0,0.332
590.0,0.333
591.0,0.335
592.0,0.336
593.0,0.338
594.0,0.339
595.0,0.340
596.0,0.341
597.0,0.342
598.0,0.344
599.0,0.345
600.0,0.346
601.0,0.347
602.0,0.348
603.0,0.349
604.0,0.351
605.0,0.352
606.0,0.353
607.0,0.354
608.0,0.355
609.0,0.356
610.0,0.357
611.0,0.359
612.0,0.360
613.0,0.361
614.0,0.362
615.0,0.363
616.0,0.364
617.0,0.365
618.0,0.366
619.0,0.368
620.0,0.369
621.0,0.370
622.0,0.371
623.0,0.372
624.0,0.373
625.0,0.374
626.0,0.375
627.0,0.376
628.0,0.377
629.0,0.378
630.0,0.380
631.0,0.381
632.0,0.382
633.0,0.383
634.0,0.385
635.0,0.386
636.0,0.387
637.0,0.388
638.0,0.389
639.0,0.390
640.0,0.391
641.0,0.393
642.0,0.394
643.0,0.395
644.0,0.396
645.0,0.397
646.0,0.398
647.0,0.400
648.0,0.401
649.0,0.402
650.0,0.403
651.0,0.405
652.0,0.406
653.0,0.407
654.0,0.408
655.0,0.410
656.0,0.411
657.0,0.412
658.0,0.413
659.0,0.415
660.0,0.416
661.0,0.417
662.0,0.418
663.0,0.420
664.0,0.421
665.0,0.423
666.0,0.424
667.0,0.425
668.0,0.427
669.0,0.428
670.0,0.430
671.0,0.431
672.0,0.432
673.0,0.434
674.0,0.435
675.0,0.436
676.0,0.437
677.0,0.439
678.0,0.441
679.0,0.442
680.0,0.444
681.0,0.445
682.0,0.446
683.0,0.447
684.0,0.448
685.0,0.449
686.0,0.450
687.0,0.452
688.0,0.453
689.0,0.455
690.0,0.456
691.0,0.456
692.0,0.457
693.0,0.458
694.0,0.459
695.0,0.460
696.0,0.461
697.0,0.462
698.0,0.463
699.0,0.464
700.0,0.465
701.0,0.466
702.0,0.466
703.0,0.466
704.0,0.467
705.0,0.467
706.0,0.468
707.0,0.469
708.0,0.469
709.0,0.469
710.0,0.469
711.0,0.469
712.0,0.470
713.0,0.470
714.0,0.469
715.0,0.469
716.0,0.470
717.0,0.470
718.0,0.469
719.0,0.469
720.0,0.468
721.0,0.468
722.0,0.468
723.0,0.467
724.0,0.466
725.0,0.466
726.0,0.465
727.0,0.465
728.0,0.464
729.0,0.464
730.0,0.463
731.0,0.462
732.0,0.461
733.0,0.460
734.0,0.459
735.0,0.458
736.0,0.458
737.0,0.457
738.0,0.456
739.0,0.455
740.0,0.454
741.0,0.453
742.0,0.452
743.0,0.451
744.0,0.450
745.0,0.448
746.0,0.447
747.0,0.446
748.0,0.446
749.0,0.445
750.0,0.443
751.0,0.442
752.0,0.441
753.0,0.441
754.0,0.440
755.0,0.439
756.0,0.438
757.0,0.437
758.0,0.436
759.0,0.435
760.0,0.434
761.0,0.433
762.0,0.433
763.0,0.432
764.0,0.431
765.0,0.430
766.0,0.429
767.0,0.428
768.0,0.428
769.0,0.427
770.0,0.427
771.0,0.427
772.0,0.426
773.0,0.426
774.0,0.426
775.0,0.425
776.0,0.425
777.0,0.426
778.0,0.425
779.0,0.424
780.0,0.423
781.0,0.424
782.0,0.424
783.0,0.424
784.0,0.424
785.0,0.425
786.0,0.425
787.0,0.424
788.0,0.424
789.0,0.424
790.0,0.425
791.0,0.426
792.0,0.426
793.0,0.427
794.0,0.427
795.0,0.427
796.0,0.427
797.0,0.429
798.0,0.430
799.0,0.431
800.0,0.432
801.0,0.433
802.0,0.433
803.0,0.434
804.0,0.434
805.0,0.435
806.0,0.436
807.0,0.438
808.0,0.439
809.0,0.440
810.0,0.442
811.0,0.443
812.0,0.445
813.0,0.446
814.0,0.446
815.0,0.448
816.0,0.449
817.0,0.451
818.0,0.452
819.0,0.454
820.0,0.456
821.0,0.458
822.0,0.458
823.0,0.460
824.0,0.461
825.0,0.464
826.0,0.465
827.0,0.467
828.0,0.468
829.0,0.470
830.0,0.471
831.0,0.473
832.0,0.475
833.0,0.476
834.0,0.478
835.0,0.479
836.0,0.482
837.0,0.484
838.0,0.487
839.0,0.488
840.0,0.490
841.0,0.492
842.0,0.494
843.0,0.497
844.0,0.499
845.0,0.501
846.0,0.502
847.0,0.505
848.0,0.507
849.0,0.509
850.0,0.510
851.0,0.512
852.0,0.514
853.0,0.516
854.0,0.518
855.0,0.520
856.0,0.522
857.0,0.523
858.0,0.525
859.0,0.527
860.0,0.529
861.0,0.531
862.0,0.532
863.0,0.534
864.0,0.536
865.0,0.538
866.0,0.539
867.0,0.541
868.0,0.543
869.0,0.544
870.0,0.545
871.0,0.546
872.0,0.547
873.0,0.549
874.0,0.550
875.0,0.551
876.0,0.552
877.0,0.553
878.0,0.554
879.0,0.555
880.0,0.556
881.0,0.556
882.0,0.557
883.0,0.557
884.0,0.557
885.0,0.557
886.0,0.557
887.0,0.557
888.0,0.557
889.0,0.557
890.0,0.557
891.0,0.557
892.0,0.556
893.0,0.555
894.0,0.554
895.0,0.553
896.0,0.552
897.0,0.551
898.0,0.550
899.0,0.549
900.0,0.547
901.0,0.545
902.0,0.544
903.0,0.542
904.0,0.540
905.0,0.537
906.0,0.535
907.0,0.532
908.0,0.530
909.0,0.527
910.0,0.524
911.0,0.521
912.0,0.518
913.0,0.516
914.0,0.512
915.0,0.509
916.0,0.505
917.0,0.502
918.0,0.498
919.0,0.494
920.0,0.491
921.0,0.487
922.0,0.483
923.0,0.479
924.0,0.474
925.0,0.470
926.0,0.466
927.0,0.462
928.0,0.457
929.0,0.453
930.0,0.449
931.0,0.445
932.0,0.440
933.0,0.436
934.0,0.431
935.0,0.426
936.0,0.422
937.0,0.417
938.0,0.413
939.0,0.408
940.0,0.403
941.0,0.399
942.0,0.394
943.0,0.389
944.0,0.385
945.0,0.380
946.0,0.376
947.0,0.371
948.0,0.367
949.0,0.362
950.0,0.358
951.0,0.353
952.0,0.349
953.0,0.345
954.0,0.341
955.0,0.337
956.0,0.333
957.0,0.328
958.0,0.324
959.0,0.320
960.0,0.317
961.0,0.313
962.0,0.309
963.0,0.305
964.0,0.302
965.0,0.298
966.0,0.295
967.0,0.292
968.0,0.289
969.0,0.285
970.0,0.282
971.0,0.279
972.0,0.276
973.0,0.273
974.0,0.271
975.0,0.268
976.0,0.265
977.0,0.262
978.0,0.259
979.0,0.256
980.0,0.253
981.0,0.251
982.0,0.248
983.0,0.246
984.0,0.243
985.0,0.241
986.0,0.238
987.0,0.236
988.0,0.234
989.0,0.232
990.0,0.230
991.0,0.228
992.0,0.225
993.0,0.223
994.0,0.221
995.0,0.219
996.0,0.217
997.0,0.215
998.0,0.213
999.0,0.211
1000.0,0.210
1001.0,0.208
1002.0,0.206
1003.0,0.204
1004.0,0.203
1005.0,0.201
1006.0,0.200
1007.0,0.198
1008.0,0.197
1009.0,0.195
1010.0,0.193
1011.0,0.192
1012.0,0.190
1013.0,0.189
1014.0,0.187
1015.0,0.186
1016.0,0.185
1017.0,0.183
1018.0,0.182
1019.0,0.180
1020.0,0.179
1021.0,0.178
1022.0,0.177
1023.0,0.175
1024.0,0.174
1025.0,0.173
1026.0,0.172
1027.0,0.171
1028.0,0.170
1029.0,0.169
1030.0,0.167
1031.0,0.166
1032.0,0.165
1033.0,0.164
1034.0,0.163
1035.0,0.163
1036.0,0.162
1037.0,0.161
1038.0,0.160
1039.0,0.159
1040.0,0.158
1041.0,0.157
1042.0,0.156
1043.0,0.155
1044.0,0.154
1045.0,0.153
1046.0,0.153
1047.0,0.152
1048.0,0.151
1049.0,0.150
1050.0,0.150
1051.0,0.149
1052.0,0.148
1053.0,0.147
1054.0,0.146
1055.0,0.146
1056.0,0.145
1057.0,0.144
1058.0,0.143
1059.0,0.143
1060.0,0.142
1061.0,0.142
1062.0,0.141
1063.0,0.140
1064.0,0.139
1065.0,0.139
1066.0,0.138
1067.0,0.138
1068.0,0.137
1069.0,0.136
1070.0,0.136
1071.0,0.135
1072.0,0.135
1073.0,0.134
1074.0,0.133
1075.0,0.133
1076.0,0.132
1077.0,0.132
1078.0,0.131
1079.0,0.131
1080.0,0.130
1081.0,0.130
1082.0,0.129
1083.0,0.129
1084.0,0.128
1085.0,0.127
1086.0,0.127
1087.0,0.126
1088.0,0.126
1089.0,0.125
1090.0,0.125
1091.0,0.125
1092.0,0.124
1093.0,0.123
1094.0,0.123
1095.0,0.122
1096.0,0.122
1097.0,0.122
1098.0,0.121
1099.0,0.121
1100.0,0.120
1101.0,0.120
1102.0,0.119
1103.0,0.119
1104.0,0.119
1105.0,0.118
1106.0,0.118
1107.0,0.117
1108.0,0.117
1109.0,0.116
1110.0,0.116
1111.0,0.116
1112.0,0.115
1113.0,0.115
1114.0,0.115
1115.0,0.114
1116.0,0.114
1117.0,0.113
1118.0,0.113
1119.0,0.112
1120.0,0.112
1121.0,0.112
1122.0,0.111
1123.0,0.111
1124.0,0.110
1125.0,0.110
1126.0,0.110
1127.0,0.109
1128.0,0.109
1129.0,0.108
1130.0,0.108
1131.0,0.107
1132.0,0.107
1133.0,0.107
1134.0,0.106
1135.0,0.105
1136.0,0.105
1137.0,0.104
1138.0,0.104
1139.0,0.104
1140.0,0.103
1141.0,0.102
1142.0,0.102
1143.0,0.102
1144.0,0.101
1145.0,0.101
1146.0,0.101
1147.0,0.100
1148.0,0.100
1149.0,0.099
1150.0,0.099
1151.0,0.100
1152.0,0.100
1153.0,0.099
1154.0,0.099
1155.0,0.099
1156.0,0.099
1157.0,0.099
1158.0,0.099
1159.0,0.099
1160.0,0.099
1161.0,0.099
1162.0,0.099
1163.0,0.099
1164.0,0.098
1165.0,0.098
1166.0,0.098
1167.0,0.098
1168.0,0.098
1169.0,0.098
1170.0,0.098
1171.0,0.098
1172.0,0.098
1173.0,0.097
1174.0,0.097
1175.0,0.097
1176.0,0.097
1177.0,0.097
1178.0,0.097
1179.0,0.096
1180.0,0.097
1181.0,0.096
1182.0,0.096
1183.0,0.096
1184.0,0.096
1185.0,0.095
1186.0,0.095
1187.0,0.095
1188.0,0.095
1189.0,0.095
1190.0,0.094
1191.0,0.094
1192.0,0.094
1193.0,0.094
1194.0,0.093
1195.0,0.093
1196.0,0.094
1197.0,0.094
1198.0,0.093
1199.0,0.092
1200.0,0.092
1201.0,0.092
1202.0,0.092
1203.0,0.092
1204.0,0.092
1205.0,0.092
1206.0,0.092
1207.0,0.091
1208.0,0.091
1209.0,0.091
1210.0,0.091
1211.0,0.090
1212.0,0.090
1213.0,0.090
1214.0,0.090
1215.0,0.090
1216.0,0.089
1217.0,0.089
1218.0,0.089
1219.0,0.089
1220.0,0.088
1221.0,0.088
1222.0,0.088
1223.0,0.088
1224.0,0.088
1225.0,0.087
1226.0,0.087
1227.0,0.086
1228.0,0.086
1229.0,0.086
1230.0,0.086
1231.0,0.086
1232.0,0.085
1233.0,0.085
1234.0,0.085
1235.0,0.084
1236.0,0.084
1237.0,0.084
1238.0,0.084
1239.0,0.083
1240.0,0.083
1241.0,0.082
1242.0,0.082
1243.0,0.082
1244.0,0.082
1245.0,0.081
1246.0,0.080
1247.0,0.080
1248.0,0.080
1249.0,0.080
1250.0,0.080
1251.0,0.080
1252.0,0.080
1253.0,0.079
1254.0,0.079
1255.0,0.079
1256.0,0.078
1257.0,0.078
1258.0,0.078
1259.0,0.078
1260.0,0.078
1261.0,0.077
1262.0,0.076
1263.0,0.076
1264.0,0.076
1265.0,0.075
1266.0,0.075
1267.0,0.075
1268.0,0.075
1269.0,0.075
1270.0,0.075
1271.0,0.074
1272.0,0.074
1273.0,0.074
1274.0,0.073
1275.0,0.073
1276.0,0.073
1277.0,0.072
1278.0,0.072
1279.0,0.072
1280.0,0.072
1281.0,0.072
1282.0,0.071
1283.0,0.071
1284.0,0.071
1285.0,0.070
1286.0,0.070
1287.0,0.070
1288.0,0.070
1289.0,0.070
1290.0,0.070
1291.0,0.069
1292.0,0.069
1293.0,0.069
1294.0,0.068
1295.0,0.067
1296.0,0.068
1297.0,0.067
1298.0,0.067
1299.0,0.067
1300.0,0.067
