Summary
[Data Information]
Data is:,Measurement Data
Dataset Name:,RawData
Sample Name:,MD_P_padrao_0,5_03_10_2025
Sample ID
Option
Analyst
Date/Time:,10/03/2025 09:30:30 AM
Comments
Parameter File Name:,Esfera de Integração.vspm
Report File Name
[Software Information]
Software Name:,LabSolutions UV-Vis
Version:,1.11
[Instrument Information]
Instrument Name:,UV-2600i
Instrument Type:,UV-2600 Series
Model (S/N):,UV-2600i (A12595900700)

Parameter
[Measurement]
Start:,1100 nm
End:,400 nm
Data Interval:,1.0
Scan Speed:,High speed
Spectrum Type:,Absorbance
[Accessories]
Accessories:,None
[Advanced]
Slit Width:,5.0
Detector Unit:,External (2 Detector)
Light Source Switch Wavelength:,323
Detector Switch Wavelength:,830
S/R Switch:,Standard
Stair Correction:,ON
[Repeat]
Repeat Measurement:,OFF
[Post-processing]
Spectrum Transformation:,OFF
Data Processing Table:,OFF
Print:,OFF

Wavelength (nm),Absorbance
400.0,0.008
401.0,0.008
402.0,0.009
403.0,0.009
404.0,0.009
405.0,0.010
406.0,0.010
407.0,0.011
408.0,0.012
409.0,0.012
410.0,0.012
411.0,0.013
412.0,0.014
413.0,0.015
414.0,0.015
415.0,0.015
416.0,0.016
417.0,0.017
418.0,0.018
419.0,0.018
420.0,0.019
421.0,0.020
422.0,0.021
423.0,0.022
424.0,0.022
425.0,0.023
426.0,0.023
427.0,0.024
428.0,0.024
429.0,0.026
430.0,0.027
431.0,0.028
432.0,0.028
433.0,0.029
434.0,0.030
435.0,0.031
436.0,0.032
437.0,0.033
438.0,0.033
439.0,0.034
440.0,0.035
441.0,0.036
442.0,0.036
443.0,0.037
444.0,0.038
445.0,0.039
446.0,0.040
447.0,0.040
448.0,0.041
449.0,0.042
450.0,0.043
451.0,0.044
452.0,0.045
453.0,0.046
454.0,0.047
455.0,0.048
456.0,0.049
457.0,0.050
458.0,0.051
459.0,0.051
460.0,0.052
461.0,0.053
462.0,0.055
463.0,0.055
464.0,0.056
465.0,0.057
466.0,0.058
467.0,0.059
468.0,0.060
469.0,0.061
470.0,0.062
471.0,0.063
472.0,0.064
473.0,0.065
474.0,0.066
475.0,0.066
476.0,0.068
477.0,0.069
478.0,0.070
479.0,0.070
480.0,0.071
481.0,0.072
482.0,0.073
483.0,0.074
484.0,0.075
485.0,0.076
486.0,0.077
487.0,0.077
488.0,0.078
489.0,0.079
490.0,0.079
491.0,0.080
492.0,0.081
493.0,0.081
494.0,0.082
495.0,0.083
496.0,0.084
497.0,0.085
498.0,0.085
499.0,0.086
500.0,0.087
501.0,0.087
502.0,0.088
503.0,0.088
504.0,0.089
505.0,0.090
506.0,0.091
507.0,0.092
508.0,0.092
509.0,0.093
510.0,0.093
511.0,0.094
512.0,0.095
513.0,0.096
514.0,0.097
515.0,0.098
516.0,0.098
517.0,0.099
518.0,0.099
519.0,0.100
520.0,0.101
521.0,0.102
522.0,0.103
523.0,0.104
524.0,0.104
525.0,0.106
526.0,0.107
527.0,0.108
528.0,0.108
529.0,0.110
530.0,0.111
531.0,0.112
532.0,0.113
533.0,0.114
534.0,0.115
535.0,0.116
536.0,0.117
537.0,0.118
538.0,0.119
539.0,0.121
540.0,0.122
541.0,0.123
542.0,0.123
543.0,0.124
544.0,0.125
545.0,0.126
546.0,0.127
547.0,0.128
548.0,0.129
549.0,0.130
550.0,0.131
551.0,0.132
552.0,0.133
553.0,0.133
554.0,0.134
555.0,0.135
556.0,0.136
557.0,0.136
558.0,0.137
559.0,0.138
560.0,0.139
561.0,0.140
562.0,0.140
563.0,0.141
564.0,0.141
565.0,0.142
566.0,0.143
567.0,0.143
568.0,0.144
569.0,0.144
570.0,0.145
571.0,0.146
572.0,0.147
573.0,0.147
574.0,0.148
575.0,0.148
576.0,0.149
577.0,0.150
578.0,0.150
579.0,0.151
580.0,0.152
581.0,0.152
582.0,0.153
583.0,0.153
584.0,0.154
585.0,0.155
586.0,0.155
587.0,0.156
588.0,0.156
589.0,0.157
590.0,0.157
591.0,0.158
592.0,0.159
593.0,0.159
594.0,0.160
595.0,0.160
596.0,0.161
597.0,0.161
598.0,0.162
599.0,0.162
600.0,0.163
601.0,0.164
602.0,0.164
603.0,0.164
604.0,0.165
605.0,0.166
606.0,0.166
607.0,0.167
608.0,0.167
609.0,0.168
610.0,0.168
611.0,0.168
612.0,0.169
613.0,0.169
614.0,0.170
615.0,0.170
616.0,0.170
617.0,0.171
618.0,0.171
619.0,0.172
620.0,0.172
621.0,0.173
622.0,0.174
623.0,0.174
624.0,0.175
625.0,0.175
626.0,0.176
627.0,0.176
628.0,0.177
629.0,0.177
630.0,0.178
631.0,0.179
632.0,0.179
633.0,0.180
634.0,0.180
635.0,0.181
636.0,0.181
637.0,0.181
638.0,0.182
639.0,0.183
640.0,0.184
641.0,0.184
642.0,0.185
643.0,0.185
644.0,0.186
645.0,0.187
646.0,0.187
647.0,0.187
648.0,0.188
649.0,0.188
650.0,0.189
651.0,0.190
652.0,0.190
653.0,0.191
654.0,0.192
655.0,0.193
656.0,0.193
657.0,0.194
658.0,0.194
659.0,0.195
660.0,0.195
661.0,0.196
662.0,0.197
663.0,0.198
664.0,0.198
665.0,0.199
666.0,0.200
667.0,0.200
668.0,0.201
669.0,0.202
670.0,0.203
671.0,0.204
672.0,0.204
673.0,0.205
674.0,0.205
675.0,0.206
676.0,0.207
677.0,0.207
678.0,0.208
679.0,0.208
680.0,0.209
681.0,0.210
682.0,0.210
683.0,0.211
684.0,0.212
685.0,0.212
686.0,0.213
687.0,0.213
688.0,0.214
689.0,0.214
690.0,0.215
691.0,0.216
692.0,0.216
693.0,0.217
694.0,0.217
695.0,0.218
696.0,0.218
697.0,0.219
698.0,0.219
699.0,0.220
700.0,0.220
701.0,0.220
702.0,0.221
703.0,0.221
704.0,0.221
705.0,0.221
706.0,0.221
707.0,0.221
708.0,0.222
709.0,0.222
710.0,0.222
711.0,0.222
712.0,0.222
713.0,0.222
714.0,0.222
715.0,0.222
716.0,0.222
717.0,0.222
718.0,0.222
719.0,0.221
720.0,0.221
721.0,0.220
722.0,0.220
723.0,0.220
724.0,0.219
725.0,0.219
726.0,0.218
727.0,0.218
728.0,0.218
729.0,0.218
730.0,0.217
731.0,0.216
732.0,0.215
733.0,0.215
734.0,0.215
735.0,0.215
736.0,0.214
737.0,0.213
738.0,0.213
739.0,0.212
740.0,0.211
741.0,0.211
742.0,0.210
743.0,0.209
744.0,0.208
745.0,0.208
746.0,0.208
747.0,0.207
748.0,0.207
749.0,0.206
750.0,0.205
751.0,0.205
752.0,0.204
753.0,0.203
754.0,0.203
755.0,0.203
756.0,0.202
757.0,0.202
758.0,0.201
759.0,0.201
760.0,0.200
761.0,0.200
762.0,0.199
763.0,0.200
764.0,0.199
765.0,0.199
766.0,0.198
767.0,0.198
768.0,0.198
769.0,0.198
770.0,0.198
771.0,0.197
772.0,0.197
773.0,0.197
774.0,0.197
775.0,0.196
776.0,0.196
777.0,0.197
778.0,0.197
779.0,0.197
780.0,0.197
781.0,0.198
782.0,0.198
783.0,0.197
784.0,0.197
785.0,0.198
786.0,0.198
787.0,0.198
788.0,0.198
789.0,0.198
790.0,0.199
791.0,0.199
792.0,0.200
793.0,0.200
794.0,0.200
795.0,0.200
796.0,0.201
797.0,0.202
798.0,0.202
799.0,0.203
800.0,0.204
801.0,0.204
802.0,0.205
803.0,0.206
804.0,0.207
805.0,0.208
806.0,0.208
807.0,0.209
808.0,0.210
809.0,0.211
810.0,0.212
811.0,0.213
812.0,0.214
813.0,0.215
814.0,0.216
815.0,0.217
816.0,0.218
817.0,0.219
818.0,0.220
819.0,0.221
820.0,0.222
821.0,0.223
822.0,0.225
823.0,0.226
824.0,0.227
825.0,0.229
826.0,0.230
827.0,0.231
828.0,0.232
829.0,0.233
830.0,0.235
831.0,0.236
832.0,0.237
833.0,0.238
834.0,0.239
835.0,0.241
836.0,0.242
837.0,0.243
838.0,0.245
839.0,0.246
840.0,0.248
841.0,0.249
842.0,0.250
843.0,0.251
844.0,0.253
845.0,0.254
846.0,0.256
847.0,0.257
848.0,0.258
849.0,0.260
850.0,0.261
851.0,0.263
852.0,0.265
853.0,0.266
854.0,0.268
855.0,0.268
856.0,0.270
857.0,0.271
858.0,0.272
859.0,0.274
860.0,0.275
861.0,0.276
862.0,0.277
863.0,0.279
864.0,0.279
865.0,0.280
866.0,0.281
867.0,0.283
868.0,0.284
869.0,0.284
870.0,0.286
871.0,0.286
872.0,0.287
873.0,0.288
874.0,0.288
875.0,0.289
876.0,0.290
877.0,0.290
878.0,0.291
879.0,0.291
880.0,0.292
881.0,0.293
882.0,0.293
883.0,0.293
884.0,0.294
885.0,0.294
886.0,0.294
887.0,0.294
888.0,0.294
889.0,0.294
890.0,0.294
891.0,0.293
892.0,0.293
893.0,0.293
894.0,0.292
895.0,0.292
896.0,0.291
897.0,0.291
898.0,0.290
899.0,0.289
900.0,0.288
901.0,0.287
902.0,0.287
903.0,0.286
904.0,0.284
905.0,0.283
906.0,0.281
907.0,0.280
908.0,0.278
909.0,0.277
910.0,0.275
911.0,0.274
912.0,0.272
913.0,0.270
914.0,0.268
915.0,0.266
916.0,0.264
917.0,0.262
918.0,0.260
919.0,0.257
920.0,0.255
921.0,0.253
922.0,0.251
923.0,0.248
924.0,0.246
925.0,0.243
926.0,0.241
927.0,0.238
928.0,0.235
929.0,0.233
930.0,0.230
931.0,0.228
932.0,0.225
933.0,0.222
934.0,0.219
935.0,0.217
936.0,0.214
937.0,0.211
938.0,0.208
939.0,0.206
940.0,0.203
941.0,0.200
942.0,0.198
943.0,0.195
944.0,0.192
945.0,0.189
946.0,0.187
947.0,0.184
948.0,0.182
949.0,0.179
950.0,0.176
951.0,0.174
952.0,0.171
953.0,0.169
954.0,0.167
955.0,0.164
956.0,0.162
957.0,0.159
958.0,0.157
959.0,0.154
960.0,0.152
961.0,0.150
962.0,0.148
963.0,0.145
964.0,0.143
965.0,0.141
966.0,0.139
967.0,0.137
968.0,0.135
969.0,0.133
970.0,0.131
971.0,0.129
972.0,0.127
973.0,0.126
974.0,0.124
975.0,0.122
976.0,0.121
977.0,0.119
978.0,0.117
979.0,0.115
980.0,0.114
981.0,0.112
982.0,0.111
983.0,0.109
984.0,0.107
985.0,0.106
986.0,0.104
987.0,0.103
988.0,0.102
989.0,0.100
990.0,0.099
991.0,0.098
992.0,0.096
993.0,0.095
994.0,0.094
995.0,0.093
996.0,0.092
997.0,0.091
998.0,0.090
999.0,0.089
1000.0,0.088
1001.0,0.087
1002.0,0.086
1003.0,0.085
1004.0,0.084
1005.0,0.082
1006.0,0.081
1007.0,0.081
1008.0,0.080
1009.0,0.079
1010.0,0.078
1011.0,0.077
1012.0,0.076
1013.0,0.076
1014.0,0.075
1015.0,0.074
1016.0,0.073
1017.0,0.072
1018.0,0.072
1019.0,0.071
1020.0,0.070
1021.0,0.069
1022.0,0.069
1023.0,0.068
1024.0,0.067
1025.0,0.067
1026.0,0.066
1027.0,0.066
1028.0,0.065
1029.0,0.064
1030.0,0.064
1031.0,0.063
1032.0,0.062
1033.0,0.062
1034.0,0.061
1035.0,0.061
1036.0,0.060
1037.0,0.060
1038.0,0.059
1039.0,0.059
1040.0,0.058
1041.0,0.058
1042.0,0.057
1043.0,0.057
1044.0,0.057
1045.0,0.056
1046.0,0.056
1047.0,0.055
1048.0,0.055
1049.0,0.054
1050.0,0.054
1051.0,0.053
1052.0,0.053
1053.0,0.053
1054.0,0.052
1055.0,0.052
1056.0,0.052
1057.0,0.051
1058.0,0.051
1059.0,0.050
1060.0,0.050
1061.0,0.050
1062.0,0.050
1063.0,0.049
1064.0,0.049
1065.0,0.048
1066.0,0.048
1067.0,0.048
1068.0,0.047
1069.0,0.047
1070.0,0.047
1071.0,0.047
1072.0,0.046
1073.0,0.046
1074.0,0.046
1075.0,0.045
1076.0,0.045
1077.0,0.045
1078.0,0.045
1079.0,0.044
1080.0,0.044
1081.0,0.044
1082.0,0.044
1083.0,0.044
1084.0,0.043
1085.0,0.043
1086.0,0.043
1087.0,0.042
1088.0,0.042
1089.0,0.042
1090.0,0.042
1091.0,0.042
1092.0,0.041
1093.0,0.041
1094.0,0.041
1095.0,0.040
1096.0,0.040
1097.0,0.040
1098.0,0.040
1099.0,0.040
1100.0,0.040
